Shift,Strength
100,1165.3497
101.44071,1143.9921
102.88142,1156.0334
104.32213,1173.8014
105.76284,1178.8431
107.20354,1153.4425
108.64426,1166.8069
110.08497,1207.2308
111.52567,1255.3624
112.96638,1312.7283
114.40709,1431.5575
115.8478,1508.9167
117.28851,1639.1123
118.72922,1942.0963
120.16993,2540.4705
121.61064,3623.3706
123.05135,5635.8887
124.49206,7305.9644
125.93277,7607.8252
127.37347,5523.4458
128.81418,3610.1853
130.2549,2606.2644
131.6956,2105.5852
133.13631,1840.4384
134.57703,1707.5514
136.01773,1617.3651
137.45844,1591.72
138.89915,1579.6997
140.33986,1548.1406
141.78056,1570.9318
143.22128,1525.9723
144.66199,1528.9858
146.10269,1541.0609
147.54341,1487.0839
148.98412,1459.6597
150.42482,1455.9939
151.86554,1446.5687
153.30624,1421.2828
154.74695,1381.976
156.18767,1412.0499
157.62837,1435.396
159.06908,1463.0063
160.5098,1496.1947
161.9505,1517.9615
163.3912,1490.9646
164.83192,1522.6869
166.27263,1563.3048
167.71333,1577.6038
169.15404,1639.7321
170.59476,1679.1416
172.03546,1740.9559
173.47617,1817.1088
174.91689,1893.7421
176.35759,2021.7351
177.79829,2063.1755
179.23901,2113.4229
180.67972,2190.3774
182.12042,2284.2073
183.56114,2552.5691
185.00185,2783.1428
186.44255,2990.5396
187.88327,3230.0242
189.32397,3602.0461
190.76468,3845.9939
192.2054,4237.4541
193.6461,4700.2202
195.08681,5166.3286
196.52753,5578.1768
197.96823,6063.4028
199.40894,6467.6548
200.84966,6822.1191
202.29036,7108.7759
203.73106,7129.4717
205.17178,6909.2983
206.61249,6629.9863
208.05319,6259.3262
209.49391,5804.7998
210.93462,5542.5537
212.37532,5051.519
213.81604,4567.1455
215.25674,4173.5171
216.69745,3889.0264
218.13815,3526.4648
219.57887,3316.1074
221.01958,3145.6377
222.46028,2943.1721
223.901,2672.6135
225.34171,2564.0776
226.78241,2409.2896
228.22313,2278.4817
229.66383,2184.7383
231.10454,2114.2136
232.54526,2030.4161
233.98596,1964.8199
235.42667,1902.2473
236.86739,1829.2911
238.30809,1736.8611
239.74879,1721.3529
241.18951,1677.4763
242.63022,1659.5958
244.07092,1674.5022
245.51164,1695.0173
246.95235,1680.2141
248.39305,1665.6095
249.83377,1635.6337
251.27448,1622.1019
252.71518,1694.6268
254.1559,1694.6218
255.5966,1831.1382
257.03732,2026.0894
258.47803,2299.7009
259.91873,2759.2085
261.35944,2989.645
262.80014,2804.656
264.24084,2349.634
265.68158,1851.5853
267.12228,1616.684
268.56299,1612.2346
270.00369,1510.5874
271.4444,1434.363
272.8851,1408.9617
274.32584,1366.7631
275.76654,1367.793
277.20724,1328.0481
278.64795,1295.7306
280.08865,1282.1876
281.52936,1265.6565
282.97009,1288.5027
284.4108,1292.075
285.8515,1282.3004
287.29221,1267.9309
288.73291,1258.9376
290.17361,1203.0699
291.61432,1211.7976
293.05505,1271.1332
294.49576,1306.5933
295.93646,1213.4268
297.37717,1243.3285
298.81787,1241.2008
300.25858,1214.2217
301.69931,1197.4379
303.14001,1236.7339
304.58072,1274.6482
306.02142,1234.6849
307.46213,1199.5865
308.90283,1200.5137
310.34357,1236.4454
311.78427,1231.467
313.22498,1172.2042
314.66568,1156.6312
316.10638,1183.1138
317.54709,1213.6572
318.98782,1217.5242
320.42853,1199.1569
321.86923,1180.6935
323.30994,1196.8456
324.75064,1250.8998
326.19135,1197.2821
327.63208,1260.7963
329.07278,1274.8923
330.51349,1262.3744
331.95419,1265.9973
333.3949,1293.1459
334.8356,1271.3448
336.27631,1271.3574
337.71704,1280.1672
339.15775,1288.969
340.59845,1312.5547
342.03915,1356.1411
343.47986,1341.6619
344.92056,1346.5621
346.3613,1400.8068
347.802,1472.4532
349.24271,1736.9529
350.68341,2310.5547
352.12411,2657.1206
353.56482,2550.9036
355.00555,2040.9304
356.44626,1722.8151
357.88696,1526.1177
359.32767,1423.9083
360.76837,1352.5238
362.20908,1268.1381
363.64981,1363.3429
365.09052,1353.3837
366.53122,1335.9945
367.97192,1316.4724
369.41263,1296.8661
370.85333,1331.3456
372.29407,1304.3591
373.73477,1276.9346
375.17548,1286.1395
376.61618,1323.644
378.05688,1315.2157
379.49759,1304.9156
380.93829,1361.575
382.37903,1371.5459
383.81973,1360.6648
385.26044,1453.6101
386.70114,1457.427
388.14185,1551.5684
389.58255,1773.0026
391.02328,1954.0487
392.46399,1905.0691
393.90469,1748.2529
395.3454,1732.3955
396.7861,1798.8925
398.22681,1843.9337
399.66754,1815.4407
401.10825,1797.3735
402.54895,1622.7126
403.98965,1509.1525
405.43036,1453.2438
406.87106,1426.3116
408.3118,1391.7764
409.7525,1430.6097
411.19321,1475.9143
412.63391,1493.9178
414.07462,1474.5132
415.51532,1437.0167
416.95605,1493.618
418.39676,1495.2819
419.83746,1491.0442
421.27817,1459.2664
422.71887,1408.1107
424.15958,1428.2811
425.60028,1493.4055
427.04102,1544.9883
428.48172,1545.5217
429.92242,1523.3969
431.36313,1553.36
432.80383,1623.5366
434.24454,1657.4917
435.68527,1654.2942
437.12598,1694.6747
438.56668,1818.6321
440.00739,1848.1486
441.44809,1946.5438
442.88879,2082.5996
444.32953,2286.6018
445.77023,2599.4836
447.21094,3049.8667
448.65164,3204.6191
450.09235,3454.9719
451.53305,3887.1067
452.97379,4583.8677
454.41449,5677.1104
455.85519,7596.0684
457.2959,11010.491
458.7366,15901.653
460.17731,21104.447
461.61804,24712.566
463.05875,24287.256
464.49945,19441.822
465.94016,14600.653
467.38086,10748.029
468.82156,8091.2324
470.26227,6371.9106
471.703,5253.6812
473.14371,5038.7456
474.58441,7428.4858
476.02512,9499.7373
477.46582,8618.2754
478.90652,3954.9714
480.34726,2976.1599
481.78796,2683.0288
483.22867,2564.5249
484.66937,2473.3179
486.11008,2406.4612
487.55078,2229.9841
488.99152,2237.4797
490.43222,2124.9099
491.87292,2025.9753
493.31363,1998.2296
494.75433,1962.2467
496.19504,1956.9896
497.63577,1883.6138
499.07648,1859.7832
500.51718,1865.7518
501.95789,1852.1342
503.39859,1821.8436
504.83929,1901.1963
506.28003,1901.0223
507.72073,1845.7759
509.16144,1791.4346
510.60214,1787.1096
512.04285,1743.1431
513.48358,1727.5466
514.92426,1709.0129
516.36499,1696.3339
517.80566,1693.5219
519.2464,1685.0116
520.68713,1674.7755
522.12781,1643.7273
523.56854,1639.9895
525.00922,1635.9833
526.44995,1599.1541
527.89063,1594.0552
529.33136,1596.6498
530.77209,1577.967
532.21277,1597.1587
533.6535,1620.024
535.09418,1560.1085
536.53491,1554.4861
537.97565,1537.7869
539.41632,1520.729
540.85706,1527.1196
542.29773,1556.6201
543.73846,1571.8647
545.17914,1545.8789
546.61987,1553.2689
548.06061,1548.1348
549.50128,1569.2734
550.94202,1616.7104
552.38269,1525.9005
553.82343,1597.9169
555.26416,1512.5022
556.70483,1497.797
558.14557,1536.4706
559.58624,1504.3384
561.02698,1507.1346
562.46765,1527.1149
563.90839,1536.0433
565.34912,1533.3685
566.78979,1524.2886
568.23053,1517.3815
569.6712,1528.9777
571.11194,1571.1531
572.55261,1557.8179
573.99335,1514.4211
575.43408,1471.1418
576.87476,1440.8097
578.31549,1510.0743
579.75616,1492.2173
581.1969,1528.145
582.63763,1561.9911
584.07831,1554.8451
585.51904,1579.1508
586.95972,1533.567
588.40045,1497.1696
589.84113,1499.3708
591.28186,1553.5511
592.7226,1623.9894
594.16327,1596.6307
595.604,1535.4508
597.04468,1513.3124
598.48541,1506.0596
599.92615,1514.2595
601.36682,1527.056
602.80756,1477.0811
604.24823,1542.6188
605.68896,1535.8357
607.12964,1498.4111
608.57037,1484.8586
610.01111,1514.6544
611.45178,1502.056
612.89252,1514.7847
614.33319,1543.4368
615.77393,1564.5596
617.2146,1561.5066
618.65533,1536.6008
620.09607,1532.905
621.53674,1534.2505
622.97748,1488.5739
624.41815,1496.5232
625.85889,1542.2653
627.29962,1551.824
628.7403,1519.7512
630.18103,1542.7399
631.6217,1521.9604
633.06244,1529.1106
634.50311,1533.6075
635.94385,1491.2271
637.38458,1530.9746
638.82526,1529.4868
640.26599,1563.1442
641.70667,1547.8363
643.1474,1507.0425
644.58813,1510.6708
646.02881,1562.5623
647.46954,1585.3579
648.91022,1600.8479
650.35095,1567.4799
651.79163,1543.8949
653.23236,1574.9114
654.6731,1538.4664
656.11377,1543.9338
657.5545,1519.4398
658.99518,1559.9675
660.43591,1592.4919
661.87659,1552.673
663.31732,1555
664.75806,1517.5378
666.19873,1541.5018
667.63947,1521.7517
669.08014,1514.9131
670.52087,1554.332
671.96161,1539.2159
673.40228,1522.7219
674.84302,1570.8965
676.28369,1553.793
677.72443,1526.3711
679.1651,1551.1425
680.60583,1617.5457
682.04657,1625.7361
683.48724,1571.0353
684.92798,1576.6471
686.36865,1603.7871
687.80939,1632.2798
689.25012,1687.4536
690.6908,1766.077
692.13153,1797.0176
693.5722,1764.3341
695.01294,1796.4282
696.45361,1812.4456
697.89435,1690.5658
699.33508,1699.3187
700.77576,1645.0764
702.21649,1626.764
703.65717,1582.7262
705.0979,1559.821
706.53857,1596.4496
707.97931,1600.7827
709.42004,1595.1703
710.86072,1592.4609
712.30145,1631.8556
713.74213,1646.631
715.18286,1614.0068
716.6236,1601.1039
718.06427,1568.51
719.505,1584.4954
720.94568,1557.4277
722.38641,1572.2028
723.82709,1615.0779
725.26782,1602.5992
726.70856,1597.7283
728.14923,1588.8828
729.58997,1534.76
731.03064,1554.0126
732.47137,1596.1005
733.91211,1581.5292
735.35278,1561.1648
736.79352,1572.5527
738.23419,1587.3337
739.67493,1612.7593
741.1156,1623.89
742.55634,1626.0005
743.99707,1654.8014
745.43774,1669.2041
746.87848,1625.6024
748.31915,1629.5013
749.75989,1646.5597
751.20056,1632.3916
752.6413,1589.5084
754.08203,1614.3524
755.52271,1583.3615
756.96344,1636.1838
758.40411,1635.8068
759.84485,1602.9324
761.28558,1583.5441
762.72626,1586.1482
764.16699,1627.3804
765.60767,1651.4132
767.0484,1641.3457
768.48907,1615.5781
769.92981,1614.5978
771.37054,1651.8395
772.81122,1657.9607
774.25195,1664.4645
775.69263,1636.2971
777.13336,1630.2722
778.5741,1648.7018
780.01477,1660.2959
781.45551,1636.7382
782.89618,1647.8196
784.33691,1675.4888
785.77759,1731.9205
787.21832,1764.251
788.65906,1813.2992
790.09973,1897.476
791.54047,1915.7328
792.98114,2044.8519
794.42188,2010.4738
795.86255,1968.9355
797.30328,1940.6354
798.74402,1896.8035
800.18469,1847.4296
801.62543,1966.4825
803.0661,1985.91
804.50684,2106.2686
805.94757,2125.6421
807.38824,2050.1733
808.82898,1954.3307
810.26965,1881.0912
811.71039,1798.8694
813.15106,1821.3903
814.5918,1790.1915
816.03253,1714.0431
817.47321,1673.7837
818.91394,1700.9946
820.35461,1705.9309
821.79535,1711.371
823.23608,1693.0309
824.67676,1731.3431
826.11749,1706.6949
827.55817,1655.1643
828.9989,1668.7511
830.43958,1670.7708
831.88031,1652.1948
833.32104,1693.5103
834.76172,1696.7886
836.20245,1694.6831
837.64313,1709.7732
839.08386,1726.037
840.52454,1723.9452
841.96527,1728.5985
843.40601,1722.6566
844.84668,1712.3519
846.28741,1699.6799
847.72809,1705.4497
849.16882,1739.9731
850.60956,1712.0017
852.05023,1666.9329
853.49097,1661.0327
854.93164,1688.8793
856.37238,1715.5531
857.81305,1721.723
859.25378,1719.5736
860.69452,1729.7308
862.13519,1727.5592
863.57593,1669.1038
865.0166,1653.2191
866.45734,1667.4489
867.89807,1689.4825
869.33875,1714.967
870.77948,1638.642
872.22015,1700.9672
873.66089,1719.522
875.10156,1737.5237
876.5423,1752.2529
877.98303,1751.4025
879.42371,1738.0652
880.86444,1720.8022
882.30511,1737.0554
883.74585,1695.6158
885.18652,1676.5536
886.62726,1710.2207
888.06799,1744.7694
889.50867,1713.3983
890.9494,1723.2852
892.39008,1736.9052
893.83081,1714.0034
895.27155,1729.9736
896.71222,1738.3263
898.15295,1717.7816
899.59363,1701.235
901.03436,1685.7042
902.47504,1703.5884
903.91577,1732.3159
905.35651,1700.2803
906.79718,1661.9017
908.23792,1688.7542
909.67859,1769.4763
911.11932,1752.4299
912.56006,1710.6724
914.00073,1716.2744
915.44147,1749.5366
916.88214,1731.425
918.32288,1700.6516
919.76355,1708.9811
921.20428,1684.67
922.64502,1703.4802
924.08569,1722.8785
925.52643,1687.5648
926.9671,1710.4852
928.40784,1743.9042
929.84851,1727.5691
931.28925,1713.9851
932.72998,1734.6588
934.17065,1653.7063
935.61139,1678.4041
937.05206,1700.0953
938.4928,1724.0844
939.93353,1735.3311
941.37421,1696.1437
942.81494,1698.1746
944.25562,1713.9431
945.69635,1743.0469
947.13702,1723.1403
948.57776,1699.7123
950.01849,1697.8042
951.45917,1715.8534
952.8999,1753.5015
954.34058,1727.5883
955.78131,1713.428
957.22205,1718.3367
958.66272,1694.8597
960.10345,1670.2733
961.54413,1677.6167
962.98486,1708.4653
964.42554,1747.0957
965.86627,1767.2109
967.30701,1707.8127
968.74768,1714.2277
970.18842,1701.5812
971.62909,1683.636
973.06982,1710.1815
974.5105,1694.7729
975.95123,1769.115
977.39197,1733.4467
978.83264,1677.4492
980.27338,1688.0663
981.71405,1716.09
983.15479,1703.4982
984.59552,1668.5785
986.03619,1672.8601
987.47693,1682.9868
988.9176,1705.663
990.35834,1705.6884
991.79901,1701.9639
993.23975,1708.11
994.68048,1726.3596
996.12115,1751.264
997.56189,1742.1761
999.00256,1784.7961
1000.4433,1723.0706
1001.884,1694.9128
1003.3247,1708.7773
1004.7654,1718.2268
1006.2061,1700.4504
1007.6469,1695.4893
1009.0875,1740.4008
1010.5283,1745.4983
1011.969,1751.0565
1013.4097,1764.5665
1014.8504,1763.7618
1016.2911,1747.1133
1017.7318,1737.7422
1019.1725,1733.8899
1020.6132,1705.2933
1022.054,1729.3287
1023.4946,1742.1063
1024.9353,1744.8357
1026.3761,1719.2832
1027.8168,1695.3489
1029.2574,1723.8304
1030.6982,1704.2714
1032.1389,1694.2059
1033.5796,1701.4421
1035.0203,1730.2183
1036.4611,1726.6974
1037.9017,1729.2444
1039.3424,1747.1388
1040.7832,1723.9259
1042.2239,1744.8727
1043.6646,1756.2526
1045.1052,1723.8624
1046.546,1728.8876
1047.9867,1744.5419
1049.4274,1745.6826
1050.8682,1740.0507
1052.3088,1755.3914
1053.7495,1798.1044
1055.1903,1814.0902
1056.631,1856.641
1058.0717,1815.6747
1059.5123,1853.8436
1060.9531,1879.3942
1062.3938,1861.1346
1063.8345,1937.8706
1065.2753,1927.9352
1066.7159,1870.0753
1068.1566,1847.177
1069.5973,1836.8184
1071.0381,1828.7949
1072.4788,1828.6185
1073.9194,1849.5118
1075.3602,1895.4558
1076.8009,1946.9098
1078.2416,2001.6932
1079.6823,2068.2039
1081.123,2051.5581
1082.5637,1974.5626
1084.0044,1894.7241
1085.4452,1845.8918
1086.8859,1825.2153
1088.3265,1818.6866
1089.7672,1820.647
1091.208,1808.7416
1092.6487,1782.8629
1094.0894,1756.9351
1095.5302,1735.4174
1096.9708,1745.288
1098.4115,1766.2445
1099.8523,1724.5533
1101.293,1747.8958
1102.7336,1796.3988
1104.1743,1756.3777
1105.6151,1792.8668
1107.0558,1791.0201
1108.4965,1762.8439
1109.9373,1762.1655
1111.3779,1776.0991
1112.8186,1795.3602
1114.2593,1819.0955
1115.7001,1791.552
1117.1407,1749.4817
1118.5814,1794.5632
1120.0222,1833.9934
1121.4629,1819.4126
1122.9036,1798.5917
1124.3442,1800.1943
1125.785,1777.061
1127.2257,1795.7009
1128.6664,1821.7191
1130.1072,1789.2104
1131.5479,1792.566
1132.9885,1807.6273
1134.4292,1773.0518
1135.87,1724.1906
1137.3107,1777.6798
1138.7513,1786.2778
1140.1921,1806.2905
1141.6328,1817.2059
1143.0735,1822.4564
1144.5143,1807.0311
1145.955,1798.579
1147.3956,1816.0032
1148.8363,1828.3245
1150.2771,1836.5483
1151.7178,1896.3647
1153.1584,1926.1344
1154.5992,2036.1252
1156.0399,2073.4739
1157.4806,2118.6211
1158.9213,2162.9346
1160.3621,2131.5164
1161.8027,2069.0615
1163.2434,1942.0397
1164.6842,1942.4624
1166.1249,1879.9434
1167.5656,1819.6188
1169.0062,1798.4973
1170.447,1829.0414
1171.8877,1829.9401
1173.3284,1777.4677
1174.7692,1813.5817
1176.2098,1803.9406
1177.6505,1800.1185
1179.0912,1736.6095
1180.532,1748.6028
1181.9727,1760.4141
1183.4133,1765.4269
1184.8541,1767.0349
1186.2948,1763.5387
1187.7355,1774.3959
1189.1763,1724.9863
1190.6169,1781.7662
1192.0576,1782.3978
1193.4983,1794.6302
1194.9391,1789.2751
1196.3798,1789.1324
1197.8204,1792.274
1199.2612,1766.0278
1200.7019,1723.8793
1202.1426,1755.917
1203.5833,1726.7885
1205.024,1772.86
1206.4647,1783.7115
1207.9054,1794.1608
1209.3462,1771.5881
1210.7869,1753.3438
1212.2275,1771.7222
1213.6682,1775.7925
1215.109,1785.1
1216.5497,1830.1262
1217.9904,1755.1355
1219.4312,1799.2803
1220.8718,1805.9833
1222.3125,1828.7604
1223.7532,1838.3828
1225.194,1832.7821
1226.6346,1861.5522
1228.0753,1842.4071
1229.5161,1819.2345
1230.9568,1805.9982
1232.3975,1838.473
1233.8383,1867.2651
1235.2789,1823.3199
1236.7196,1786.8534
1238.1603,1786.2709
1239.6011,1792.9258
1241.0417,1801.0479
1242.4824,1715.5305
1243.9232,1808.829
1245.3639,1755.6145
1246.8046,1809.0636
1248.2452,1769.9973
1249.686,1795.4579
1251.1267,1830.5221
1252.5674,1812.9094
1254.0082,1816.2975
1255.4489,1813.0107
1256.8895,1750.2981
1258.3302,1751.676
1259.771,1765.6698
1261.2117,1797.2573
1262.6523,1789.0732
1264.0931,1795.21
1265.5338,1818.8738
1266.9745,1813.865
1268.4152,1779.1201
1269.856,1773.46
1271.2966,1816.5631
1272.7373,1731.417
1274.1781,1733.4781
1275.6188,1708.4111
1277.0594,1742.2916
1278.5002,1796.2859
1279.9409,1831.5497
1281.3816,1835.9884
1282.8223,1822.5024
1284.2631,1871.96
1285.7037,1816.9738
1287.1444,1807.2327
1288.5852,1725.7322
1290.0259,1765.2773
1291.4666,1791.498
1292.9072,1791.7384
1294.348,1798.3302
1295.7887,1807.9866
1297.2294,1794.449
1298.6702,1754.2451
1300.1108,1756.691
1301.5515,1725.6154
1302.9922,1752.8524
1304.433,1759.0332
1305.8737,1768.6567
1307.3143,1787.3489
1308.7551,1812.2188
1310.1958,1802.0732
1311.6365,1746.5969
1313.0771,1744.8848
1314.5179,1741.8678
1315.9586,1743.2693
1317.3993,1733.993
1318.8401,1715.9631
1320.2808,1742.5157
1321.7214,1769.5132
1323.1622,1782.9735
1324.6029,1787.1437
1326.0436,1780.4429
1327.4843,1779.8544
1328.925,1819.3547
1330.3657,1809.1234
1331.8064,1795.7827
1333.2472,1751.2725
1334.6879,1786.7827
1336.1285,1812.7914
1337.5692,1790.0391
1339.01,1776.486
1340.4507,1804.843
1341.8914,1823.4515
1343.3322,1794.2693
1344.7728,1764.6274
1346.2135,1764.7904
1347.6542,1766.8767
1349.095,1777.2272
1350.5356,1781.9077
1351.9763,1758.9037
1353.4171,1752.1626
1354.8578,1763.6586
1356.2985,1774.1212
1357.7391,1776.1697
1359.1799,1733.3578
1360.6206,1795.4745
1362.0613,1726.2279
1363.5021,1771.3955
1364.9427,1748.7545
1366.3834,1743.9648
1367.8242,1741.1882
1369.2649,1728.6981
1370.7056,1726.1168
1372.1462,1731.0775
1373.587,1737.0527
1375.0277,1789.8446
1376.4684,1768.9711
1377.9092,1774.2549
1379.3499,1732.0756
1380.7905,1772.8052
1382.2312,1781.871
1383.672,1773.804
1385.1127,1815.1919
1386.5533,1861.0315
1387.9941,1846.9434
1389.4348,1799.7809
1390.8755,1758.0457
1392.3162,1748.6946
1393.757,1759.4825
1395.1976,1697.6953
1396.6383,1740.3677
1398.0791,1744.9772
1399.5198,1729.2286
1400.9604,1740.2679
1402.4011,1766.3882
1403.8419,1755.2733
1405.2826,1732.7291
1406.7233,1783.0317
1408.1641,1803.8052
1409.6047,1791.0153
1411.0454,1775.8533
1412.4862,1733.1277
1413.9269,1775.9724
1415.3676,1725.3741
1416.8082,1737.6228
1418.249,1774.8044
1419.6897,1769.4424
1421.1304,1749.9471
1422.5712,1748.4369
1424.0118,1753.0217
1425.4525,1751.3191
1426.8932,1750.2367
1428.334,1707.5778
1429.7747,1767.2028
1431.2153,1773.5995
1432.6561,1756.1619
1434.0968,1753.8256
1435.5375,1733.7949
1436.9781,1744.0889
1438.4189,1765.8381
1439.8596,1720.7913
1441.3003,1730.6244
1442.7411,1731.5134
1444.1818,1756.2015
1445.6224,1719.1744
1447.0631,1773.2509
1448.5039,1783.6058
1449.9446,1773.3827
1451.3853,1751.948
1452.826,1723.4906
1454.2667,1755.6953
1455.7074,2041.1765
1457.1482,2439.2434
1458.5889,2311.4985
1460.0295,1833.5015
1461.4702,1731.3601
1462.911,1735.9401
1464.3517,1751.8502
1465.7924,1782.1655
1467.2332,1729.522
1468.6738,1743.1801
1470.1145,1730.2302
1471.5552,1720.813
1472.996,1741.0344
1474.4366,1751.5896
1475.8773,1770.7643
1477.3181,1751.7919
1478.7588,1696.9545
1480.1995,1735.772
1481.6401,1732.3239
1483.0809,1747.4563
1484.5216,1737.9187
1485.9623,1664.5825
1487.4031,1647.1257
1488.8438,1703.3422
1490.2844,1748.4707
1491.7251,1742.9142
1493.1659,1742.5514
1494.6066,1755.2225
1496.0472,1683.9827
1497.488,1720.3826
1498.9287,1765.1949
1500.3694,1767.4956
1501.8102,1713.6246
1503.2509,1739.6605
1504.6915,1748.2587
1506.1322,1726.1841
1507.573,1711.788
1509.0137,1732.9689
1510.4543,1737.5963
1511.8951,1707.1449
1513.3358,1705.1235
1514.7765,1709.6763
1516.2172,1752.9659
1517.658,1799.116
1519.0986,2077.5876
1520.5393,2400.9175
1521.9801,1992.8904
1523.4208,1766.5055
1524.8615,1696.5137
1526.3021,1688.824
1527.7429,1705.7672
1529.1836,1700.8829
1530.6243,1697.8906
1532.0651,1716.937
1533.5057,1670.9072
1534.9464,1621.3754
1536.3871,1699.3069
1537.8279,1685.2261
1539.2686,1688.6866
1540.7092,1655.7002
1542.15,1688.615
1543.5907,1708.3979
1545.0314,1648.8348
1546.4722,1653.0261
1547.9128,1689.3771
1549.3535,1690.9492
1550.7942,1691.8369
1552.235,1710.7584
1553.6757,1702.7494
1555.1163,1662.6166
1556.5571,1647.394
1557.9978,1674.6589
1559.4385,1667.0244
1560.8792,1708.0977
1562.3199,1681.6208
1563.7606,1693.8883
1565.2013,1698.2349
1566.6421,1697.5671
1568.0828,1684.0259
1569.5234,1658.7925
1570.9641,1675.2135
1572.4049,1696.7098
1573.8456,1650.2043
1575.2863,1651.7487
1576.7271,1676.8907
1578.1677,1684.7206
1579.6084,1661.9434
1581.0491,1629.1335
1582.4899,1620.2257
1583.9305,1634.3671
1585.3712,1663.7701
1586.812,1675.9688
1588.2527,1679.6721
1589.6934,1649.1785
1591.1342,1651.0062
1592.5748,1692.1433
1594.0155,1681.3583
1595.4562,1639.7985
1596.897,1637.3674
1598.3376,1704.429
1599.7783,1686.4244
1601.2191,1662.1764
1602.6598,1666.6746
1604.1005,1636.0662
1605.5411,1658.6595
1606.9819,1681.4379
1608.4226,1672.3353
1609.8633,1662.6604
1611.3041,1665.8879
1612.7448,1653.3051
1614.1854,1655.0767
1615.6261,1663.7252
1617.0669,1648.6281
1618.5076,1656.2843
1619.9482,1649.106
1621.389,1650.7334
1622.8297,1631.9048
1624.2704,1623.3549
1625.7111,1665.8435
1627.1519,1636.6105
1628.5925,1640.6539
1630.0332,1624.5791
1631.474,1653.4866
1632.9147,1651.8234
1634.3553,1640.6715
1635.7961,1640.8976
1637.2368,1618.8721
1638.6775,1623.7676
1640.1182,1632.8003
1641.559,1629.4462
1642.9996,1616.767
1644.4403,1614.3896
1645.8811,1619.3208
1647.3218,1614.8663
1648.7625,1601.2604
1650.2031,1608.5604
1651.6439,1618.7418
1653.0846,1566.4901
1654.5253,1574.512
1655.9661,1586.1608
1657.4067,1588.8121
1658.8474,1620.187
1660.2881,1610.8547
1661.7289,1591.511
1663.1696,1584.5256
1664.6102,1573.4818
1666.051,1572.4393
1667.4917,1592.2545
1668.9324,1596.358
1670.373,1600.0031
1671.8138,1573.8423
1673.2545,1532.6294
1674.6952,1568.4535
1676.136,1579.0962
1677.5767,1569.0188
1679.0173,1580.8291
1680.4581,1591.9395
1681.8988,1546.1427
1683.3395,1555.5179
1684.7802,1566.3993
1686.2209,1540.4779
1687.6616,1524.7231
1689.1023,1544.6002
1690.5431,1559.3514
1691.9838,1550.7666
1693.4244,1526.8387
1694.8651,1534.6316
1696.3059,1535.2762
1697.7466,1537.0197
1699.1873,1554.605
1700.6281,1529.6969
1702.0687,1540.1364
1703.5094,1521.3101
1704.9501,1539.9164
1706.3909,1525.6871
1707.8315,1511.673
1709.2722,1541.8019
1710.713,1517.2399
1712.1537,1519.7136
1713.5944,1529.3428
1715.035,1547.8146
1716.4758,1536.5491
1717.9165,1528.4318
1719.3572,1545.2782
1720.798,1520.3687
1722.2386,1510.3785
1723.6793,1534.7482
1725.1201,1538.9923
1726.5608,1512.3744
1728.0015,1503.105
1729.4421,1515.376
1730.8829,1511.9382
1732.3236,1503.2554
1733.7643,1479.4063
1735.2051,1502.0199
1736.6458,1497.2306
1738.0864,1530.9537
1739.5271,1489.9829
1740.9679,1500.7014
1742.4086,1493.1117
1743.8492,1505.8647
1745.29,1490.7397
1746.7307,1505.3527
1748.1714,1513.906
1749.6121,1489.6311
1751.0529,1489.8182
1752.4935,1496.8951
1753.9342,1478.3271
1755.375,1469.5798
1756.8157,1489.5968
1758.2563,1489.2618
1759.697,1480.1799
1761.1378,1458.9459
1762.5785,1483.9564
1764.0192,1484.8944
1765.46,1478.8765
1766.9006,1444.6525
1768.3413,1459.5364
1769.7821,1462.9924
1771.2228,1461.3834
1772.6635,1454.7181
1774.1041,1442.7742
1775.5449,1460.0731
1776.9856,1460.7557
1778.4263,1434.9603
1779.8671,1436.5646
1781.3077,1426.0554
1782.7484,1412.9952
1784.1891,1451.3013
1785.6299,1445.4032
1787.0706,1423.7982
1788.5112,1416.7297
1789.952,1449.038
1791.3927,1444.1492
1792.8334,1469.5255
1794.274,1445.5682
1795.7148,1441.5935
1797.1555,1419.8855
1798.5962,1410.4154
1800.037,1420.2135
1801.4777,1424.1361
1802.9183,1437.0961
1804.359,1417.0488
1805.7998,1384.3953
1807.2405,1404.8148
1808.6812,1422.1163
1810.1219,1431.2449
1811.5626,1455.2665
1813.0033,1457.0016
1814.4441,1441.4666
1815.8848,1431.3513
1817.3254,1415.8868
1818.7661,1413.3715
1820.2069,1414.7773
1821.6476,1394.9789
1823.0883,1409.6914
1824.5291,1380.3082
1825.9697,1356.6942
1827.4104,1409.6371
1828.8511,1429.0012
1830.2919,1393.8149
1831.7325,1400.9896
1833.1732,1400.447
1834.614,1412.1793
1836.0547,1383.967
1837.4954,1386.839
1838.936,1394.8217
1840.3768,1402.5187
1841.8175,1416.3369
1843.2582,1418.4224
1844.699,1399.5374
1846.1396,1366.332
1847.5803,1360.4192
1849.021,1383.735
1850.4618,1391.2985
1851.9025,1412.165
1853.3431,1398.5614
1854.7839,1341.5641
1856.2246,1350.0381
1857.6653,1356.351
1859.1061,1347.3438
1860.5468,1345.646
1861.9874,1400.2157
1863.4281,1327.3823
1864.8689,1396.1063
1866.3096,1406.4829
1867.7502,1379.4048
1869.191,1330.5115
1870.6317,1356.6157
1872.0724,1345.8381
1873.5131,1346.8755
1874.9539,1346.168
1876.3945,1373.6782
1877.8352,1370.8097
1879.276,1373.3281
1880.7167,1378.0903
1882.1573,1362.567
1883.598,1357.6727
1885.0388,1354.5713
1886.4795,1349.9768
1887.9202,1352.1936
1889.361,1349.3889
1890.8016,1370.6016
1892.2423,1347.413
1893.683,1321.1075
1895.1238,1350.6101
1896.5645,1349.3011
1898.0051,1360.236
1899.4459,1317.7048
1900.8866,1328.9807
1902.3273,1337.0671
1903.7681,1339.5122
1905.2087,1348.2979
1906.6494,1368.1693
1908.0901,1334.7599
1909.5309,1321.046
1910.9716,1344.3948
1912.4122,1274.2788
1913.853,1337.9363
1915.2937,1329.6777
1916.7344,1287.853
1918.175,1307.3014
1919.6158,1304.9241
1921.0565,1311.8883
1922.4972,1321.545
1923.938,1328.5616
1925.3787,1321.2325
1926.8193,1311.7053
1928.26,1289.5814
1929.7008,1282.9977
1931.1415,1318.7554
1932.5822,1327.0726
1934.0229,1322.0049
1935.4636,1319.048
1936.9043,1327.7827
1938.345,1329.5592
1939.7858,1309.6699
1941.2264,1339.6298
1942.6671,1308.4923
1944.1079,1307.0919
1945.5486,1268.186
1946.9893,1288.1069
1948.4301,1275.2618
1949.8707,1342.2107
1951.3114,1313.1357
1952.7521,1287.3083
1954.1929,1308.8015
1955.6335,1281.8756
1957.0742,1268.5587
1958.515,1245.8815
1959.9557,1257.1156
1961.3964,1295.4648
1962.837,1288.9824
1964.2778,1296.5231
1965.7185,1295.1262
1967.1592,1315.8291
1968.6,1287.4766
1970.0406,1285.7493
1971.4813,1268.261
1972.922,1278.7019
1974.3628,1260.9043
1975.8035,1274.6525
1977.2441,1295.5125
1978.6849,1289.0289
1980.1256,1297.4739
1981.5663,1296.5692
1983.007,1273.3762
1984.4478,1272.2046
1985.8884,1287.2532
1987.3291,1279.2517
1988.7699,1264.5017
1990.2106,1244.2086
1991.6512,1236.4761
1993.092,1261.0464
1994.5327,1239.8065
1995.9734,1242.8419
1997.4141,1216.384
1998.8549,1207.4225
2000.2955,1240.2659
2001.7362,1271.0814
2003.177,1260.7383
2004.6177,1239.051
2006.0583,1294.3467
2007.499,1275.5398
2008.9398,1255.7372
2010.3805,1259.627
2011.8212,1262.7545
2013.262,1237.4279
2014.7026,1241.0825
2016.1433,1240.1252
2017.584,1235.6816
2019.0248,1255.6735
2020.4655,1244.9637
2021.9061,1228.6211
2023.3469,1252.1707
2024.7876,1258.9069
2026.2283,1247.6428
2027.6689,1257.7953
2029.1097,1253.5188
2030.5504,1263.9156
2031.9911,1235.8611
2033.4319,1230.9045
2034.8726,1260.2527
2036.3132,1218.1263
2037.754,1191.6802
2039.1947,1219.0835
2040.6354,1242.952
2042.076,1233.6852
2043.5168,1232.9564
2044.9575,1219.041
2046.3982,1202.3561
2047.839,1217.1256
2049.2795,1206.3337
2050.7205,1201.5067
2052.1611,1212.0829
2053.6018,1225.955
2055.0425,1236.6454
2056.4832,1209.7606
2057.9238,1187.7454
2059.3645,1216.0438
2060.8054,1227.4124
2062.2461,1202.8191
2063.6868,1181.8488
2065.1274,1175.9381
2066.5681,1188.5804
2068.0088,1187.3881
2069.4495,1196.5657
2070.8904,1191.5903
2072.3311,1189.3774
2073.7717,1207.2043
2075.2124,1177.476
2076.6531,1176.1647
2078.0938,1206.0548
2079.5344,1198.1375
2080.9753,1184.8422
2082.416,1225.0562
2083.8567,1244.7529
2085.2974,1238.4303
2086.738,1202.7295
2088.1787,1199.4918
2089.6194,1190.0321
2091.0603,1215.4823
2092.501,1195.8718
2093.9417,1165.2762
2095.3823,1197.3888
2096.823,1178.3286
2098.2637,1208.7164
2099.7046,1176.2592
2101.1453,1143.6472
2102.5859,1172.736
2104.0266,1165.1348
2105.4673,1172.1003
2106.908,1170.324
2108.3486,1158.1003
2109.7896,1195.5867
2111.2302,1134.0909
2112.6709,1137.235
2114.1116,1155.1539
2115.5522,1171.4021
2116.9929,1173.47
2118.4336,1146.9685
2119.8745,1158.6465
2121.3152,1181.8167
2122.7559,1171.5343
2124.1965,1201.288
2125.6372,1157.2245
2127.0779,1177.5735
2128.5186,1140.7263
2129.9595,1208.1338
2131.4001,1190.4661
2132.8408,1162.5972
2134.2815,1121.8372
2135.7222,1181.0929
2137.1628,1147.7302
2138.6035,1150.7777
2140.0444,1128.0585
2141.4851,1150.4896
2142.9258,1137.7982
2144.3665,1144.0618
2145.8071,1174.8741
2147.2478,1159.1119
2148.6885,1179.7094
2150.1294,1101.7396
2151.5701,1181.2146
2153.0107,1163.9104
2154.4514,1153.5273
2155.8921,1114.4147
2157.3328,1174.0635
2158.7734,1107.7723
2160.2144,1137.1708
2161.655,1107.3376
2163.0957,1114.288
2164.5364,1141.9548
2165.9771,1155.5161
2167.4177,1144.4435
2168.8584,1129.1254
2170.2993,1121.996
2171.74,1104.1426
2173.1807,1159.6783
2174.6213,1131.863
2176.062,1114.3663
2177.5027,1109.439
2178.9434,1164.9098
2180.3843,1140.5542
2181.825,1119.837
2183.2656,1132.7655
2184.7063,1077.7916
2186.147,1119.4102
2187.5876,1102.3346
2189.0286,1106.4701
2190.4692,1087.9634
2191.9099,1118.5858
2193.3506,1126.0168
2194.7913,1094.0126
2196.2319,1116.8492
2197.6726,1097.0292
2199.1135,1108.4009
2200.5542,1059.2329
2201.9949,1135.3682
2203.4355,1108.1366
2204.8762,1090.0354
2206.3169,1097.5352
2207.7576,1058.1392
2209.1985,1121.9565
2210.6392,1062.0226
2212.0798,1061.1613
2213.5205,1117.5808
2214.9612,1059.1625
2216.4019,1097.6444
2217.8425,1091.3224
2219.2834,1067.4417
2220.7241,1110.099
2222.1648,1081.0708
2223.6055,1100.9882
2225.0461,1081.9775
2226.4868,1097.7373
2227.9275,1092.6013
2229.3684,1087.001
2230.8091,1093.2413
2232.2498,1080.8558
2233.6904,1113.3274
2235.1311,1076.4572
2236.5718,1091.0381
2238.0125,1099.7047
2239.4534,1095.7928
2240.894,1099.067
2242.3347,1105.7841
2243.7754,1087.3689
2245.2161,1097.3344
2246.6567,1084.9299
2248.0974,1095.4685
2249.5383,1078.4008
2250.979,1063.0222
2252.4197,1068.943
2253.8604,1057.1274
2255.301,1071.7323
2256.7417,1066.9683
2258.1824,1077.4055
2259.6233,1064.6206
2261.064,1073.2786
2262.5046,1095.1449
2263.9453,1073.1805
2265.386,1067.4547
2266.8267,1056.0404
2268.2673,1042.6205
2269.7083,1064.5792
2271.1489,1066.2856
2272.5896,1060.5079
2274.0303,1062.3588
2275.4709,1047.1224
2276.9116,1053.3047
2278.3525,1065.8811
2279.7932,1060.7764
2281.2339,1033.4229
2282.6746,1026.829
2284.1152,1053.8225
2285.5559,1051.6555
2286.9966,1029.0841
2288.4375,1038.1215
2289.8782,1034.5427
2291.3188,1023.2339
2292.7595,1039.9598
2294.2002,1052.5701
2295.6409,1025.9602
2297.0815,1040.2599
2298.5225,1043.3938
2299.9631,1056.3682
2301.4038,1036.8289
2302.8445,1009.3596
2304.2852,1055.3599
2305.7258,1052.9645
2307.1665,1045.5941
2308.6074,1025.2689
2310.0481,1016.4629
2311.4888,1050.9299
2312.9294,1032.1683
2314.3701,1044.3047
2315.8108,1012.2534
2317.2515,1046.7859
2318.6924,1019.7747
2320.1331,1045.2404
2321.5737,1039.4617
2323.0144,1017.9224
2324.4551,1006.4293
2325.8958,1026.5034
2327.3364,1041.4353
2328.7773,1041.2028
2330.218,1012.0253
2331.6587,1026.8799
2333.0994,1011.5806
2334.54,1009.1241
2335.9807,1055.7563
2337.4214,1016.0011
2338.8623,1033.8907
2340.303,1017.076
2341.7437,1035.5093
2343.1843,1037.2383
2344.625,1036.9
2346.0657,1027.5375
2347.5063,1006.411
2348.9473,1003.9809
2350.3879,1015.0154
2351.8286,1022.5989
2353.2693,1010.0236
2354.71,1033.2324
2356.1506,1045.2174
2357.5913,1038.431
2359.0322,1023.0759
2360.4729,1014.0029
2361.9136,1022.2484
2363.3542,1020.6458
2364.7949,1005.7634
2366.2356,996.54095
2367.6765,1010.1094
2369.1172,1014.353
2370.5579,994.73505
2371.9985,1009.1815
2373.4392,985.1972
2374.8799,1003.7457
2376.3206,988.276
2377.7615,999.00476
2379.2021,1013.8859
2380.6428,1018.6142
2382.0835,984.25342
2383.5242,1006.8167
2384.9648,1000.2058
2386.4055,978.53284
2387.8464,1007.925
2389.2871,1019.9899
2390.7278,991.02136
2392.1685,964.03601
2393.6091,994.11969
2395.0498,986.10632
2396.4905,1002.7589
2397.9314,991.01117
2399.3721,1008.0767
2400.8127,1001.2072
2402.2534,983.97339
2403.6941,988.94702
2405.1348,985.41211
2406.5754,980.50067
2408.0164,981.35077
2409.457,966.62006
2410.8977,985.00885
2412.3384,994.37616
2413.7791,979.96478
2415.2197,962.55597
2416.6604,953.77789
2418.1013,972.60919
2419.542,986.57599
2420.9827,983.83636
2422.4233,988.86115
2423.864,936.66443
2425.3047,938.83136
2426.7454,934.58838
2428.1863,964.73914
2429.627,988.81799
2431.0676,982.7724
2432.5083,997.88782
2433.949,946.87103
2435.3896,971.95636
2436.8303,939.6543
2438.2712,976.75732
2439.7119,967.73822
2441.1526,960.20831
2442.5933,964.26831
2444.0339,950.19861
2445.4746,967.56702
2446.9153,968.69305
2448.3562,966.23779
2449.7969,964.64819
2451.2375,965.54401
2452.6782,966.34961
2454.1189,963.48279
2455.5596,966.73322
2457.0005,965.39844
2458.4412,971.45477
2459.8818,947.50409
2461.3225,939.20288
2462.7632,973.39093
2464.2039,967.87854
2465.6445,970.43329
2467.0854,937.98456
2468.5261,940.65576
2469.9668,962.05011
2471.4075,941.49042
2472.8481,950.43311
2474.2888,923.80188
2475.7295,952.2605
2477.1704,934.09827
2478.6111,945.62677
2480.0518,954.44635
2481.4924,968.80109
2482.9331,963.9635
2484.3738,953.11157
2485.8145,953.85486
2487.2554,961.92242
2488.696,945.36603
2490.1367,933.09369
2491.5774,948.76202
2493.0181,939.17633
2494.4587,944.1936
2495.8994,922.81958
2497.3403,940.75574
2498.781,943.38599
2500.2217,941.3902
2501.6624,895.7085
2503.103,939.2832
2504.5437,940.30072
2505.9844,944.15564
2507.4253,924.50873
2508.866,939.13177
2510.3066,952.88635
2511.7473,959.35474
2513.188,909.75952
2514.6287,947.52344
2516.0693,947.4032
2517.5103,951.3244
2518.9509,951.34088
2520.3916,948.80396
2521.8323,922.22089
2523.2729,923.74139
2524.7136,931.29047
2526.1543,954.44214
2527.5952,935.45007
2529.0359,927.66681
2530.4766,916.0589
2531.9172,915.3562
2533.3579,924.86469
2534.7986,936.93365
2536.2393,925.2724
2537.6802,936.56494
2539.1208,933.20374
2540.5615,915.06641
2542.0022,921.00439
2543.4429,922.34363
2544.8835,936.13635
2546.3245,918.85059
2547.7651,923.44366
2549.2058,938.96301
2550.6465,926.66418
2552.0872,920.37195
2553.5278,911.58923
2554.9685,893.62878
2556.4094,912.2641
2557.8501,920.3006
2559.2908,940.22882
2560.7314,918.78613
2562.1721,916.67413
2563.6128,926.97638
2565.0535,910.06427
2566.4944,915.79584
2567.9351,908.66278
2569.3757,935.53613
2570.8164,894.49347
2572.2571,905.54785
2573.6978,904.72449
2575.1384,900.46301
2576.5793,906.85547
2578.02,892.98853
2579.4607,874.88623
2580.9014,901.97931
2582.342,911.42767
2583.7827,897.88013
2585.2234,907.48883
2586.6643,910.86157
2588.105,907.40912
2589.5457,893.69012
2590.9863,898.71442
2592.427,922.0401
2593.8677,906.07983
2595.3083,906.21368
2596.7493,922.88501
2598.1899,897.89398
2599.6306,874.32239
2601.0713,892.61475
2602.512,901.80695
2603.9526,896.00403
2605.3933,893.22595
2606.8342,889.6698
2608.2749,888.13855
2609.7156,889.60138
2611.1563,907.86182
2612.5969,905.71851
2614.0376,864.57843
2615.4783,893.9173
2616.9192,893.69348
2618.3599,887.92603
2619.8005,885.19073
2621.2412,874.01691
2622.6819,881.80139
2624.1226,888.17151
2625.5632,897.41907
2627.0042,885.53473
2628.4448,876.13043
2629.8855,855.42975
2631.3262,858.71265
2632.7668,887.33917
2634.2075,907.17963
2635.6484,851.4585
2637.0891,880.47217
2638.5298,857.56134
2639.9705,889.97174
2641.4111,876.11469
2642.8518,896.57489
2644.2925,897.85095
2645.7334,883.86328
2647.1741,871.99927
2648.6147,864.35022
2650.0554,852.90509
2651.4961,868.71173
2652.9368,865.97052
2654.3774,847.32556
2655.8184,862.99274
2657.259,866.1673
2658.6997,857.48907
2660.1404,852.30164
2661.5811,866.27795
2663.0217,878.1637
2664.4624,849.15784
2665.9033,879.96136
2667.344,883.47925
2668.7847,911.32086
2670.2253,896.61792
2671.666,889.92621
2673.1067,862.96918
2674.5474,861.43878
2675.9883,865.81207
2677.429,881.06104
2678.8696,862.01038
2680.3103,863.43335
2681.751,884.36584
2683.1917,875.90356
2684.6323,883.76013
2686.0732,825.23755
2687.5139,862.68158
2688.9546,858.43805
2690.3953,850.32587
2691.8359,846.44769
2693.2766,865.737
2694.7173,859.11328
2696.1582,851.19012
2697.5989,864.11816
2699.0396,854.64264
2700.4802,849.63055
2701.9209,830.16394
2703.3616,842.5484
2704.8022,858.37738
2706.2432,845.09741
2707.6838,834.29291
2709.1245,860.44482
2710.5652,864.19434
2712.0059,854.40247
2713.4465,853.77832
2714.8875,856.87823
2716.3281,835.67853
2717.7688,836.64264
2719.2095,818.43158
2720.6501,846.51172
2722.0908,838.79077
2723.5315,842.20416
2724.9724,837.46936
2726.4131,814.33905
2727.8538,843.79858
2729.2944,855.77899
2730.7351,853.77795
2732.1758,835.30096
2733.6165,848.02142
2735.0574,848.0235
2736.498,835.44263
2737.9387,848.11237
2739.3794,818.98676
2740.8201,830.28955
2742.2607,846.2832
2743.7014,859.2276
2745.1423,834.45618
2746.583,837.16467
2748.0237,847.75568
2749.4644,846.55664
2750.905,847.86646
2752.3457,843.20367
2753.7864,847.56604
2755.2273,828.12817
2756.668,839.81671
2758.1086,837.77411
2759.5493,829.30682
2760.99,808.78522
2762.4307,786.22797
2763.8713,819.64832
2765.3123,844.83246
2766.7529,850.93427
2768.1936,827.44482
2769.6343,827.05573
2771.075,823.06628
2772.5156,834.66699
2773.9563,834.93488
2775.3972,816.49829
2776.8379,824.89117
2778.2786,787.80554
2779.7192,820.18219
2781.1599,815.99976
2782.6006,831.79816
2784.0413,836.53058
2785.4822,821.48767
2786.9229,808.61505
2788.3635,821.76526
2789.8042,823.42059
2791.2449,807.505
2792.6855,821.0036
2794.1262,808.69952
2795.5671,827.37732
2797.0078,804.11316
2798.4485,809.20996
2799.8892,815.34265
2801.3298,813.98419
2802.7705,813.49127
2804.2114,826.74359
2805.6521,825.50146
2807.0928,804.39386
2808.5334,801.25891
2809.9741,797.42108
2811.4148,796.31793
2812.8555,829.83557
2814.2964,837.9577
2815.7371,807.6402
2817.1777,794.87891
2818.6184,792.84149
2820.0591,797.1712
2821.4998,814.40503
2822.9404,795.14252
2824.3813,796.10626
2825.822,807.02161
2827.2627,803.02942
2828.7034,790.71173
2830.144,797.95062
2831.5847,786.6012
2833.0254,788.94562
2834.4663,796.57507
2835.907,784.92505
2837.3477,773.4361
2838.7883,768.13086
2840.229,776.91235
2841.6697,782.84296
2843.1104,770.80975
2844.5513,766.69885
2845.9919,802.36774
2847.4326,779.45081
2848.8733,777.34558
2850.314,774.58673
2851.7546,783.0896
2853.1953,783.93903
2854.6362,788.62067
2856.0769,783.14575
2857.5176,768.65057
2858.9583,778.13721
2860.3989,764.3288
2861.8396,777.80481
2863.2803,774.75165
2864.7212,782.71393
2866.1619,771.70624
2867.6025,769.7688
2869.0432,763.90234
2870.4839,758.4494
2871.9246,765.35468
2873.3652,747.04352
2874.8062,761.00092
2876.2468,760.03265
2877.6875,759.62433
2879.1282,758.62207
2880.5688,751.06097
2882.0095,740.25684
2883.4502,750.68951
2884.8911,763.59943
2886.3318,754.98663
2887.7725,768.55811
2889.2131,766.08179
2890.6538,748.93439
2892.0945,743.20459
2893.5354,752.22748
2894.9761,752.6181
2896.4167,775.2077
2897.8574,758.08026
2899.2981,753.96979
2900.7388,732.95563
2902.1794,733.88892
2903.6204,737.82709
2905.061,760.94788
2906.5017,749.69543
2907.9424,751.39557
2909.3831,732.60248
2910.8237,746.1814
2912.2644,746.2627
2913.7053,745.06329
2915.146,745.92267
2916.5867,751.52271
2918.0273,735.12982
2919.468,746.06848
2920.9087,741.84772
2922.3494,742.53607
2923.7903,738.70599
2925.231,740.51233
2926.6716,736.27734
2928.1123,726.61621
2929.553,724.93787
2930.9937,744.41858
2932.4343,748.12054
2933.8752,735.98816
2935.3159,738.19647
2936.7566,725.4339
2938.1973,738.62061
2939.6379,733.09167
2941.0786,734.78174
2942.5193,736.34247
2943.9602,730.21857
2945.4009,735.99774
2946.8416,740.52972
2948.2822,711.60376
2949.7229,719.94086
2951.1636,720.90192
2952.6042,726.05035
2954.0452,730.58942
2955.4858,720.84589
2956.9265,719.51288
2958.3672,720.09833
2959.8079,729.09485
2961.2485,726.336
2962.6892,726.54333
2964.1301,707.06525
2965.5708,723.57513
2967.0115,714.84515
2968.4521,700.73828
2969.8928,700.27856
2971.3335,713.56738
2972.7742,724.09747
2974.2151,726.28754
2975.6558,742.06433
2977.0964,723.59943
2978.5371,710.63123
2979.9778,708.63184
2981.4185,697.30139
2982.8594,706.55145
2984.3,700.42981
2985.7407,709.04022
2987.1814,699.38019
2988.6221,689.41949
2990.0627,707.17792
2991.5034,694.72748
2992.9443,700.52911
2994.385,702.47278
2995.8257,701.80426
2997.2664,694.17822
2998.707,697.95392
3000.1477,705.6676
3001.5884,703.28125
3003.0293,685.05066
3004.47,702.20428
3005.9106,701.45935
3007.3513,692.8429
3008.792,695.63464
3010.2327,707.66919
3011.6733,692.91681
3013.1143,698.45099
3014.5549,707.52777
3015.9956,695.711
3017.4363,702.07672
3018.877,691.50903
3020.3176,686.9043
3021.7583,701.64679
3023.1992,685.15204
3024.6399,667.87256
3026.0806,695.1925
3027.5212,687.50342
3028.9619,686.67523
3030.4026,691.65021
3031.8433,695.29028
3033.2842,683.49835
3034.7249,672.30548
3036.1655,691.47443
3037.6062,680.27197
3039.0469,689.8728
3040.4875,681.02545
3041.9282,666.92816
3043.3691,665.94067
3044.8098,692.69757
3046.2505,685.50354
3047.6912,673.28107
3049.1318,681.60114
3050.5725,661.26306
3052.0132,675.56616
3053.4541,684.96118
3054.8948,697.34656
3056.3354,688.92523
3057.7761,664.05035
3059.2168,672.00024
3060.6575,668.09332
3062.0981,688.68646
3063.5391,660.89612
3064.9797,675.14636
3066.4204,687.78955
3067.8611,677.84753
3069.3018,673.97607
3070.7424,669.63605
3072.1833,666.77722
3073.624,674.36932
3075.0647,672.83276
3076.5054,676.61603
3077.946,676.20648
3079.3867,677.44257
3080.8274,668.21991
3082.2683,664.75781
3083.709,673.46936
3085.1497,672.91461
3086.5903,662.62872
3088.031,674.81421
3089.4717,667.03522
3090.9124,681.38867
3092.3533,682.96783
3093.7939,674.36047
3095.2346,669.34003
3096.6753,675.69141
3098.116,648.32635
3099.5566,673.1756
3100.9973,658.72766
3102.4382,665.5307
3103.8789,664.06976
3105.3196,659.48706
3106.7603,648.25879
3108.2009,655.62848
3109.6416,636.84106
3111.0823,665.53101
3112.5232,653.56573
3113.9639,673.22327
3115.4045,663.83087
3116.8452,657.25647
3118.2859,645.17633
3119.7266,643.61969
3121.1672,657.93951
3122.6082,658.55035
3124.0488,669.57581
3125.4895,659.68866
3126.9302,654.61456
3128.3708,653.97998
3129.8115,666.65778
3131.2522,645.08026
3132.6931,655.93481
3134.1338,648.22729
3135.5745,662.35925
3137.0151,639.98242
3138.4558,641.5882
3139.8965,647.42737
3141.3372,635.53534
3142.7781,631.48785
3144.2188,636.0697
3145.6594,641.58069
3147.1001,636.87524
3148.5408,653.10712
3149.9814,655.77124
3151.4221,639.14923
3152.863,638.22852
3154.3037,687.48755
3155.7444,638.83612
3157.1851,645.78217
3158.6257,647.65826
3160.0664,637.56403
3161.5073,653.22388
3162.948,654.94049
3164.3887,647.65735
3165.8293,649.47302
3167.27,653.56549
3168.7107,636.67633
3170.1514,650.37476
3171.5923,649.37671
3173.033,631.258
3174.4736,634.79535
3175.9143,635.3371
3177.355,659.92651
3178.7957,629.56409
3180.2363,636.74841
3181.6772,642.46808
3183.1179,652.54309
3184.5586,644.64447
3185.9993,652.05945
3187.4399,629.23596
3188.8806,649.44855
3190.3213,646.0155
3191.7622,637.92139
3193.2029,642.02148
3194.6436,632.40729
3196.0842,641.93402
3197.5249,615.89496
3198.9656,642.76471
3200.4063,624.22626
3201.8472,631.56635
3203.2878,654.07739
3204.7285,648.09778
3206.1692,635.10474
3207.6099,629.96783
3209.0505,638.68597
3210.4912,646.69073
3211.9321,643.59418
3213.3728,635.65686
3214.8135,625.87195
3216.2542,622.84589
3217.6948,630.86566
3219.1355,642.8739
3220.5762,640.9812
3222.0171,636.38287
3223.4578,622.29706
3224.8984,634.68134
3226.3391,646.28552
3227.7798,639.39124
3229.2205,640.35278
3230.6611,638.22675
3232.1021,641.95221
3233.5427,630.79218
3234.9834,616.4917
3236.4241,627.53149
3237.8647,626.18011
3239.3054,631.27618
3240.7461,627.68658
3242.187,631.69763
3243.6277,633.73181
3245.0684,637.02026
3246.509,633.06885
3247.9497,629.44843
3249.3904,620.16162
3250.8313,623.96643
3252.272,641.00098
3253.7126,623.15173
3255.1533,628.29358
3256.594,610.50281
3258.0347,616.32117
3259.4753,616.76819
3260.9163,624.72412
3262.3569,615.50684
3263.7976,618.34607
3265.2383,625.6886
3266.679,626.23004
3268.1196,618.65881
3269.5603,623.88141
3271.0012,615.25568
3272.4419,613.61694
3273.8826,623.42493
3275.3232,613.75446
3276.7639,625.97137
3278.2046,612.20947
3279.6453,601.59448
3281.0862,624.82111
3282.5269,619.58508
3283.9675,603.62524
3285.4082,615.54791
3286.8489,600.29462
3288.2896,601.47552
3289.7302,598.55157
3291.1711,595.01056
3292.6118,608.31049
3294.0525,596.82758
3295.4932,600.60919
3296.9338,606.65118
3298.3745,621.32385
3299.8152,611.26471
3301.2561,599.52576
3302.6968,603.78607
3304.1375,609.43292
3305.5781,626.26166
3307.0188,599.42273
3308.4595,605.38867
3309.9001,600.7121
3311.3411,608.46118
3312.7817,603.69641
3314.2224,621.70337
3315.6631,603.97693
3317.1038,624.44458
3318.5444,614.41034
3319.9851,609.61597
3321.426,588.18304
3322.8667,598.19
3324.3074,602.34052
3325.748,588.6828
3327.1887,600.4751
3328.6294,598.2345
3330.0701,598.74377
3331.511,588.25995
3332.9517,595.75043
3334.3923,607.00494
3335.833,592.89374
3337.2737,591.6225
3338.7144,586.28546
3340.1553,597.43878
3341.5959,588.15942
3343.0366,585.76776
3344.4773,589.88446
3345.918,593.97369
3347.3586,601.87878
3348.7993,600.08154
3350.2402,598.87085
3351.6809,598.02466
3353.1216,597.06049
3354.5623,594.61017
3356.0029,601.30463
3357.4436,612.69775
3358.8843,595.70123
3360.3252,575.6911
3361.7659,588.72015
3363.2065,593.11011
3364.6472,578.36444
3366.0879,614.09302
3367.5286,604.81805
3368.9692,586.67987
3370.4102,578.80347
3371.8508,584.18884
3373.2915,581.61176
3374.7322,593.85394
3376.1729,587.37653
3377.6135,574.52435
3379.0542,578.96576
3380.4951,589.96399
3381.9358,580.13806
3383.3765,578.77948
3384.8171,585.24811
3386.2578,587.19623
3387.6985,568.30365
3389.1392,587.6723
3390.5801,573.13403
3392.0208,595.27899
3393.4614,586.03973
3394.9021,579.38904
3396.3428,582.22772
3397.7834,587.5791
3399.2241,584.95856
3400.665,582.85474
3402.1057,574.9342
3403.5464,584.75208
3404.9871,588.76862
3406.4277,584.9198
3407.8684,572.99194
3409.3091,582.67169
3410.75,597.65442
3412.1907,591.58575
3413.6313,587.48474
3415.072,585.11639
3416.5127,586.612
3417.9534,581.28778
3419.394,571.75507
3420.835,580.52521
3422.2756,583.38623
3423.7163,576.89185
3425.157,569.51263
3426.5977,572.62958
3428.0383,563.81384
3429.4792,575.32263
3430.9199,586.52319
3432.3606,589.99884
3433.8013,552.66003
3435.2419,565.23029
3436.6826,575.35315
3438.1233,568.42706
3439.5642,557.91089
3441.0049,562.40601
3442.4456,580.0719
3443.8862,571.19904
3445.3269,562.47253
3446.7676,569.16937
3448.2083,568.49579
3449.6492,566.10376
3451.0898,562.85626
3452.5305,578.25269
3453.9712,566.33734
3455.4119,556.83978
3456.8525,554.89166
3458.2932,565.80652
3459.7341,564.68292
3461.1748,555.15265
3462.6155,546.05261
3464.0562,563.8548
3465.4968,557.06433
3466.9375,554.72681
3468.3782,549.79102
3469.8191,557.96979
3471.2598,567.01251
3472.7004,542.56525
3474.1411,547.59265
3475.5818,558.19702
3477.0225,552.99548
3478.4631,548.60126
3479.9041,537.03351
3481.3447,543.5946
3482.7854,560.04248
3484.2261,556.55463
3485.6667,536.03094
3487.1074,561.09125
3488.5481,559.11414
3489.989,544.75238
3491.4297,539.86292
3492.8704,542.08722
3494.311,547.44965
3495.7517,537.82202
3497.1924,549.84045
3498.6331,545.29199
3500.074,534.72076
3501.5146,540.75494
3502.9553,554.35785
3504.396,543.45258
3505.8367,544.04047
3507.2773,545.60864
3508.718,541.61572
3510.1589,545.32385
3511.5996,543.14545
3513.0403,528.17627
3514.481,519.94794
3515.9216,542.85425
3517.3623,539.18268
3518.8032,522.09717
3520.2439,536.99854
3521.6846,529.79474
3523.1252,539.12549
3524.5659,543.82104
3526.0066,550.78851
3527.4473,543.51215
3528.8882,531.15717
3530.3289,544.88678
3531.7695,539.13129
3533.2102,534.95135
3534.6509,530.36719
3536.0916,525.14685
3537.5322,534.11298
3538.9731,539.92731
3540.4138,520.15991
3541.8545,528.03894
3543.2952,531.08893
3544.7358,530.35754
3546.1765,533.86737
3547.6172,536.82666
3549.0581,522.38763
3550.4988,522.0849
3551.9395,542.94873
3553.3801,528.54199
3554.8208,523.76483
3556.2615,536.4621
3557.7021,526.25787
3559.1431,524.91962
3560.5837,517.00781
3562.0244,523.56287
3563.4651,519.61279
3564.9058,525.20685
3566.3464,524.41095
3567.7871,520.86011
3569.228,516.73328
3570.6687,522.7038
3572.1094,521.03497
3573.55,521.69336
3574.9907,519.1886
3576.4314,525.5697
3577.8721,520.98175
3579.313,502.23932
3580.7537,517.84009
3582.1943,512.15314
3583.635,508.26526
3585.0757,525.99512
3586.5164,522.72968
3587.957,506.29285
3589.3979,520.70166
3590.8386,509.66406
3592.2793,532.3349
3593.72,502.9223
3595.1606,500.29678
3596.6013,512.71704
3598.042,500.52151
3599.4829,513.06958
3600.9236,517.97198
3602.3643,515.90149
3603.8049,526.40338
3605.2456,521.10364
3606.6863,513.82867
3608.1272,522.14227
3609.5679,522.56451
3611.0085,524.63275
3612.4492,522.92975
3613.8899,529.74768
3615.3306,539.02594
3616.7712,527.47272
3618.2122,531.83026
3619.6528,530.11896
3621.0935,548.01782
3622.5342,561.78088
3623.9749,543.36987
3625.4155,549.53131
3626.8562,547.21924
3628.2971,553.81012
3629.7378,546.81921
3631.1785,541.854
3632.6191,535.52936
3634.0598,540.40637
3635.5005,533.87067
3636.9412,539.9953
3638.3821,532.12012
3639.8228,554.25226
3641.2634,546.54932
3642.7041,537.53717
3644.1448,532.47906
3645.5854,527.59283
3647.0261,517.57208
3648.467,531.51929
3649.9077,541.3205
3651.3484,523.38855
3652.7891,532.32062
3654.2297,505.3681
3655.6704,537.91675
3657.1111,509.56122
3658.552,508.09415
3659.9927,505.34058
3661.4333,500.01999
3662.874,500.24384
3664.3147,509.26318
3665.7554,490.53046
3667.196,506.19199
3668.637,519.30945
3670.0776,506.36023
3671.5183,487.15079
3672.959,494.67184
3674.3997,497.01031
3675.8403,499.92419
3677.281,490.19791
3678.7219,492.5217
3680.1626,480.92239
3681.6033,479.32202
3683.0439,473.3085
3684.4846,479.51361
3685.9253,461.8356
3687.366,494.22571
3688.8069,485.20129
3690.2476,482.99307
3691.6882,483.04495
3693.1289,487.37704
3694.5696,470.66995
3696.0103,472.1087
3697.4512,464.09595
3698.8918,459.67603
3700.3325,487.27524
3701.7732,477.1918
3703.2139,466.74908
3704.6545,472.25208
3706.0952,478.90231
3707.5361,476.36115
3708.9768,480.31464
3710.4175,476.4061
3711.8582,472.91751
3713.2988,451.58746
3714.7395,468.95438
3716.1802,459.5509
3717.6211,477.12912
3719.0618,467.79483
3720.5024,451.59152
3721.9431,464.69049
3723.3838,461.39502
3724.8245,456.28802
3726.2651,465.9043
3727.7061,462.87485
3729.1467,451.81909
3730.5874,460.92139
3732.0281,454.4964
3733.4688,442.18561
3734.9094,467.66507
3736.3501,460.75
3737.791,465.54031
3739.2317,444.35999
3740.6724,469.53708
3742.113,460.23859
3743.5537,452.90076
3744.9944,470.93274
3746.4351,459.65561
3747.876,461.38187
3749.3167,458.6774
3750.7573,474.78284
3752.198,443.97333
3753.6387,462.00726
3755.0793,456.27841
3756.52,446.22409
3757.9609,452.27777
3759.4016,440.52789
3760.8423,442.44315
3762.283,448.49243
3763.7236,467.30856
3765.1643,441.68976
3766.605,458.23734
3768.0459,452.19934
3769.4866,465.61996
3770.9272,445.82471
3772.3679,452.29523
3773.8086,441.60754
3775.2493,453.76892
3776.6899,453.98611
3778.1309,441.15988
3779.5715,432.57486
3781.0122,434.03409
3782.4529,443.3443
3783.8936,442.0419
3785.3342,436.17825
3786.7751,437.73648
3788.2158,437.37503
3789.6565,442.02774
3791.0972,442.28729
3792.5378,447.66278
3793.9785,441.38184
3795.4192,439.17755
3796.8601,448.25439
3798.3008,438.91364
3799.7415,453.14862
3801.1821,449.89957
3802.6228,454.71671
3804.0635,435.72937
3805.5042,444.52374
3806.9451,420.78516
3808.3857,437.89081
3809.8264,447.78967
3811.2671,441.9429
3812.7078,443.47641
3814.1484,448.62717
3815.5891,442.19589
3817.03,440.25168
3818.4707,430.54871
3819.9114,440.19974
3821.3521,433.13895
3822.7927,433.14819
3824.2334,448.87344
3825.6741,433.60815
3827.115,417.28015
3828.5557,426.76996
3829.9963,436.92474
3831.437,436.20825
3832.8777,438.61502
3834.3184,431.91522
3835.759,435.8562
3837.2,441.29166
3838.6406,437.27011
3840.0813,431.57617
3841.522,439.63205
3842.9626,439.60007
3844.4033,435.25677
3845.844,426.25452
3847.2849,406.44131
3848.7256,436.1868
3850.1663,431.1875
3851.6069,437.1814
3853.0476,419.95258
3854.4883,422.35474
3855.929,425.686
3857.3699,425.77316
3858.8105,442.49496
3860.2512,419.39478
3861.6919,426.22192
3863.1326,428.21664
3864.5732,431.49246
3866.0139,430.31116
3867.4548,431.39026
3868.8955,435.2023
3870.3362,423.96133
3871.7769,430.69431
3873.2175,421.5838
3874.6582,418.10358
3876.0991,435.34775
3877.5398,405.78348
3878.9805,410.08359
3880.4211,426.79498
3881.8618,414.51254
3883.3025,412.97165
3884.7432,407.42053
3886.1841,412.44797
3887.6248,425.91422
3889.0654,427.78439
3890.5061,422.13718
3891.9468,433.58798
3893.3875,413.88504
3894.8281,429.00186
3896.269,407.47623
3897.7097,423.10544
3899.1504,409.09991
3900.5911,410.95288
3902.0317,410.00629
3903.4724,403.57843
3904.9131,415.07217
3906.354,411.15158
3907.7947,398.20541
3909.2354,411.26227
3910.676,407.24472
3912.1167,423.10083
3913.5574,418.0582
3914.998,413.60483
3916.439,399.80429
3917.8796,401.87881
3919.3203,400.45895
3920.761,404.13419
3922.2017,403.10175
3923.6423,405.52731
3925.083,398.06528
3926.5239,410.07028
3927.9646,399.09341
3929.4053,395.14398
3930.8459,409.32083
3932.2866,393.99478
3933.7273,399.72626
3935.168,393.25879
3936.6089,401.858
3938.0496,412.55792
3939.4902,402.25439
3940.9309,400.11603
3942.3716,409.51587
3943.8123,406.45615
3945.2529,400.4379
3946.6938,407.43781
3948.1345,405.94669
3949.5752,406.61075
3951.0159,399.78906
3952.4565,402.01379
3953.8972,399.77103
3955.3379,403.91638
3956.7788,400.55719
3958.2195,398.67194
3959.6602,392.17987
3961.1008,395.7233
3962.5415,395.03079
3963.9822,395.14832
3965.4231,399.95599
3966.8638,393.16934
3968.3044,381.54272
3969.7451,383.33087
3971.1858,396.63135
3972.6265,397.59619
3974.0671,399.04059
3975.5081,395.55783
3976.9487,404.68823
3978.3894,402.50531
3979.8301,373.83664
3981.2708,402.80325
3982.7114,388.61264
3984.1521,398.88303
3985.593,388.97879
3987.0337,387.25
3988.4744,402.19861
3989.915,404.82104
3991.3557,399.32166
3992.7964,397.44339
3994.2371,395.31598
3995.678,399.81622
3997.1187,385.74808
3998.5593,382.52505
4000,397.52872
